# wave	flux	error	model
# 
1.379099999999999909e+03 9.550830000000000153e-01 3.472650000000000042e-02 9.997956756846871906e-01
1.379130000000000109e+03 1.026699999999999946e+00 3.601510000000000128e-02 9.997648803468558443e-01
1.379160000000000082e+03 9.877700000000000369e-01 3.540829999999999672e-02 9.997351888502408190e-01
1.379190000000000055e+03 1.049830000000000041e+00 3.645700000000000329e-02 9.997073016091246878e-01
1.379220000000000027e+03 1.025169999999999915e+00 3.598010000000000097e-02 9.996812507056279662e-01
1.379250000000000000e+03 9.845340000000000202e-01 3.525319999999999843e-02 9.996567805700136145e-01
1.379279999999999973e+03 9.880010000000000181e-01 3.537049999999999916e-02 9.996337176630973875e-01
1.379309999999999945e+03 1.026580000000000048e+00 3.595450000000000035e-02 9.996170792577234732e-01
1.379339999999999918e+03 9.528219999999999468e-01 3.466980000000000062e-02 9.996091125317509984e-01
1.379369999999999891e+03 1.040030000000000010e+00 3.619119999999999976e-02 9.996038358810358515e-01
1.379400000000000091e+03 9.898289999999999589e-01 3.531440000000000273e-02 9.995996622354123007e-01
1.379430000000000064e+03 9.798799999999999732e-01 3.514090000000000269e-02 9.995962693013720202e-01
1.379460000000000036e+03 1.003409999999999913e+00 3.559790000000000176e-02 9.995934324740005650e-01
1.379490000000000009e+03 9.672889999999999544e-01 3.498590000000000033e-02 9.995909169285247531e-01
1.379519999999999982e+03 9.954190000000000538e-01 3.540030000000000260e-02 9.995884987913310482e-01
1.379549999999999955e+03 9.491760000000000197e-01 3.474649999999999961e-02 9.995859839962556448e-01
1.379579999999999927e+03 1.022469999999999990e+00 3.593369999999999898e-02 9.995832248104783435e-01
1.379609999999999900e+03 1.025500000000000078e+00 3.613659999999999789e-02 9.995801192136161140e-01
1.379640000000000100e+03 9.810940000000000216e-01 3.518890000000000212e-02 9.995765809379539846e-01
1.379670000000000073e+03 9.767670000000000519e-01 3.505389999999999895e-02 9.995725078635618877e-01
1.379700000000000045e+03 9.848930000000000184e-01 3.526180000000000286e-02 9.995677951772418135e-01
1.379730000000000018e+03 1.013249999999999984e+00 3.579039999999999999e-02 9.995623909235114013e-01
1.379759999999999991e+03 9.928519999999999568e-01 3.532819999999999711e-02 9.995563095354894623e-01
1.379789999999999964e+03 1.050969999999999960e+00 3.637939999999999924e-02 9.995495904843512136e-01
1.379809999999999945e+03 1.004050000000000109e+00 3.557779999999999970e-02 9.995422745779019014e-01
1.379839999999999918e+03 9.966500000000000359e-01 3.538700000000000179e-02 9.995344324567749794e-01
1.379869999999999891e+03 1.001370000000000093e+00 3.549830000000000346e-02 9.995262006918986808e-01
1.379900000000000091e+03 1.008420000000000094e+00 3.557289999999999758e-02 9.995177652817807123e-01
1.379930000000000064e+03 9.833030000000000381e-01 3.513499999999999956e-02 9.995093152624302535e-01
1.379960000000000036e+03 9.296539999999999804e-01 3.421380000000000254e-02 9.995010141746187848e-01
1.379990000000000009e+03 9.910080000000000000e-01 3.528909999999999686e-02 9.994929858352229468e-01
1.380019999999999982e+03 9.739050000000000207e-01 3.516949999999999937e-02 9.994853015160687359e-01
1.380049999999999955e+03 9.702629999999999866e-01 3.497929999999999789e-02 9.994779936658058084e-01
1.380079999999999927e+03 9.611049999999999871e-01 3.494640000000000246e-02 9.994710884644082416e-01
1.380109999999999900e+03 9.741880000000000539e-01 3.511929999999999913e-02 9.994646277333427697e-01
1.380140000000000100e+03 9.698790000000000466e-01 3.496769999999999740e-02 9.994586250257593285e-01
1.380170000000000073e+03 1.027979999999999894e+00 3.590440000000000298e-02 9.994529931420016444e-01
1.380200000000000045e+03 1.079380000000000006e+00 3.677690000000000126e-02 9.994475488461040946e-01
1.380230000000000018e+03 1.047209999999999974e+00 3.623799999999999938e-02 9.994420753029805704e-01
1.380259999999999991e+03 1.081409999999999982e+00 3.681829999999999825e-02 9.994363739995898444e-01
1.380289999999999964e+03 1.080089999999999995e+00 3.681630000000000319e-02 9.994302697097127153e-01
1.380319999999999936e+03 9.969639999999999613e-01 3.534640000000000004e-02 9.994235984417192409e-01
1.380349999999999909e+03 1.007079999999999975e+00 3.551239999999999952e-02 9.994162136509358030e-01
1.380380000000000109e+03 1.007009999999999961e+00 3.553859999999999658e-02 9.994079883272293241e-01
1.380410000000000082e+03 1.014429999999999943e+00 3.566020000000000301e-02 9.993988233138364485e-01
1.380440000000000055e+03 1.050920000000000076e+00 3.625889999999999669e-02 9.993886706021395394e-01
1.380470000000000027e+03 1.022929999999999895e+00 3.577430000000000193e-02 9.993775373768315484e-01
1.380500000000000000e+03 9.916509999999999492e-01 3.524850000000000205e-02 9.993654719857593127e-01
1.380529999999999973e+03 1.012420000000000098e+00 3.569479999999999875e-02 9.993525449576761144e-01
1.380559999999999945e+03 9.187070000000000514e-01 3.400360000000000188e-02 9.993388368431369573e-01
1.380589999999999918e+03 9.840119999999999978e-01 3.516299999999999981e-02 9.993244314833364950e-01
1.380619999999999891e+03 9.776340000000000030e-01 3.496459999999999846e-02 9.993094192747331572e-01
1.380650000000000091e+03 1.040170000000000039e+00 3.613210000000000033e-02 9.992939017182480566e-01
1.380680000000000064e+03 1.016270000000000007e+00 3.565220000000000194e-02 9.992779947275306496e-01
1.380710000000000036e+03 1.005360000000000031e+00 3.544869999999999965e-02 9.992617997295700771e-01
1.380740000000000009e+03 1.021039999999999948e+00 3.572729999999999656e-02 9.992454132131105560e-01
1.380769999999999982e+03 1.002439999999999998e+00 3.542209999999999803e-02 9.992289392205647713e-01
1.380799999999999955e+03 9.890679999999999472e-01 3.519459999999999950e-02 9.992124706102636367e-01
1.380829999999999927e+03 1.040399999999999991e+00 3.613999999999999851e-02 9.991960521318834498e-01
1.380859999999999900e+03 9.664970000000000505e-01 3.482969999999999816e-02 9.991796626759850142e-01
1.380890000000000100e+03 9.437360000000000193e-01 3.436419999999999753e-02 9.991632228762475920e-01
1.380920000000000073e+03 1.003179999999999961e+00 3.541110000000000091e-02 9.991466091632044133e-01
1.380950000000000045e+03 1.003789999999999960e+00 3.541740000000000166e-02 9.991296460167397031e-01
1.380980000000000018e+03 1.008780000000000010e+00 3.556779999999999664e-02 9.991121150330875000e-01
1.381009999999999991e+03 1.003390000000000004e+00 3.539010000000000072e-02 9.990937880465964316e-01
1.381039999999999964e+03 1.035600000000000076e+00 3.596099999999999991e-02 9.990744460837053253e-01
1.381069999999999936e+03 9.940820000000000212e-01 3.532239999999999686e-02 9.990539122483593770e-01
1.381099999999999909e+03 9.517949999999999466e-01 3.448079999999999895e-02 9.990320576780912232e-01
1.381130000000000109e+03 9.917249999999999677e-01 3.523520000000000124e-02 9.990087993696465940e-01
1.381160000000000082e+03 1.030329999999999968e+00 3.587080000000000130e-02 9.989840721797473844e-01
1.381190000000000055e+03 1.033579999999999943e+00 3.591540000000000010e-02 9.989578116779459505e-01
1.381220000000000027e+03 1.017339999999999911e+00 3.560619999999999757e-02 9.989300036805627281e-01
1.381250000000000000e+03 1.005409999999999915e+00 3.539429999999999660e-02 9.989007391666857583e-01
1.381279999999999973e+03 9.981630000000000225e-01 3.537529999999999841e-02 9.988702009861382125e-01
1.381309999999999945e+03 1.020750000000000046e+00 3.568169999999999675e-02 9.988386274983962476e-01
1.381339999999999918e+03 1.006610000000000005e+00 3.542490000000000222e-02 9.988062258264245319e-01
1.381369999999999891e+03 1.070240000000000080e+00 3.654040000000000066e-02 9.987731699941634345e-01
1.381400000000000091e+03 9.863359999999999905e-01 3.506959999999999938e-02 9.987396051077631620e-01
1.381430000000000064e+03 1.050629999999999953e+00 3.618819999999999676e-02 9.987056446771236384e-01
1.381460000000000036e+03 1.016580000000000039e+00 3.560170000000000001e-02 9.986714034498754833e-01
1.381490000000000009e+03 9.498839999999999506e-01 3.441219999999999696e-02 9.986369765529081732e-01
1.381519999999999982e+03 9.919860000000000344e-01 3.519549999999999762e-02 9.986022988250934374e-01
1.381549999999999955e+03 9.833840000000000359e-01 3.500709999999999933e-02 9.985670357571631017e-01
1.381579999999999927e+03 9.961989999999999457e-01 3.525459999999999705e-02 9.985305447565718806e-01
1.381609999999999900e+03 1.043220000000000036e+00 3.606349999999999834e-02 9.984920911997157145e-01
1.381640000000000100e+03 9.482019999999999893e-01 3.445329999999999920e-02 9.984510213666824008e-01
1.381670000000000073e+03 1.025700000000000056e+00 3.570729999999999738e-02 9.984068139958017785e-01
1.381700000000000045e+03 9.795420000000000238e-01 3.499850000000000183e-02 9.983589960809909902e-01
1.381730000000000018e+03 9.659210000000000296e-01 3.480069999999999691e-02 9.983069655999674552e-01
1.381759999999999991e+03 1.023609999999999909e+00 3.568169999999999675e-02 9.982499240913553784e-01
1.381789999999999964e+03 9.963199999999999834e-01 3.525509999999999755e-02 9.981868346977248452e-01
1.381819999999999936e+03 1.007449999999999957e+00 3.544420000000000209e-02 9.981164503934760734e-01
1.381849999999999909e+03 1.019400000000000084e+00 3.563689999999999913e-02 9.980374404156884260e-01
1.381880000000000109e+03 1.067900000000000071e+00 3.655390000000000028e-02 9.979484359101482571e-01
1.381910000000000082e+03 1.071569999999999911e+00 3.649920000000000248e-02 9.978481485383970950e-01
1.381940000000000055e+03 9.996220000000000105e-01 3.539409999999999779e-02 9.977355113916364093e-01
1.381970000000000027e+03 9.539729999999999599e-01 3.483229999999999660e-02 9.976097893499609182e-01
1.382000000000000000e+03 1.015139999999999931e+00 3.561380000000000101e-02 9.974707410567795751e-01
1.382029999999999973e+03 1.018270000000000008e+00 3.570000000000000256e-02 9.973185643829586278e-01
1.382059999999999945e+03 1.076349999999999918e+00 3.675609999999999988e-02 9.971535666376617479e-01
1.382089999999999918e+03 1.084319999999999951e+00 3.676460000000000145e-02 9.969756902698418966e-01
1.382119999999999891e+03 1.005870000000000042e+00 3.548300000000000065e-02 9.967841910245229808e-01
1.382150000000000091e+03 1.025139999999999940e+00 3.576780000000000237e-02 9.965778235974350752e-01
1.382180000000000064e+03 1.005349999999999966e+00 3.538920000000000260e-02 9.963549502582629280e-01
1.382210000000000036e+03 1.018010000000000081e+00 3.558580000000000076e-02 9.961136021810426122e-01
1.382240000000000009e+03 1.038950000000000040e+00 3.608759999999999746e-02 9.958514618850049516e-01
1.382269999999999982e+03 1.033449999999999980e+00 3.586860000000000048e-02 9.955659530018338144e-01
1.382299999999999955e+03 1.059989999999999988e+00 3.634029999999999899e-02 9.952543834417877378e-01
1.382329999999999927e+03 1.071730000000000071e+00 3.656480000000000147e-02 9.949142395599167576e-01
1.382359999999999900e+03 1.035139999999999949e+00 3.585859999999999742e-02 9.945436942768011157e-01
1.382390000000000100e+03 1.054859999999999909e+00 3.623649999999999788e-02 9.941411319950372860e-01
1.382420000000000073e+03 1.040519999999999889e+00 3.598799999999999916e-02 9.937039722729282820e-01
1.382450000000000045e+03 1.033860000000000001e+00 3.584299999999999986e-02 9.932275363694088588e-01
1.382480000000000018e+03 1.025430000000000064e+00 3.576569999999999749e-02 9.927057388617074318e-01
1.382509999999999991e+03 9.957859999999999490e-01 3.523559999999999887e-02 9.921333726941908848e-01
1.382539999999999964e+03 1.022049999999999903e+00 3.568659999999999888e-02 9.915086728739248567e-01
1.382569999999999936e+03 1.042650000000000077e+00 3.600810000000000122e-02 9.908342122705919852e-01
1.382599999999999909e+03 1.034890000000000088e+00 3.594479999999999897e-02 9.901165933798800056e-01
1.382630000000000109e+03 9.825420000000000265e-01 3.494660000000000127e-02 9.893655696711234349e-01
1.382660000000000082e+03 9.901520000000000321e-01 3.513320000000000332e-02 9.885912148146663858e-01
1.382690000000000055e+03 9.739550000000000152e-01 3.477609999999999729e-02 9.877999439904594503e-01
1.382720000000000027e+03 9.887709999999999555e-01 3.504369999999999707e-02 9.869926848034451528e-01
1.382750000000000000e+03 9.749179999999999513e-01 3.481309999999999960e-02 9.861666645472610959e-01
1.382779999999999973e+03 9.708170000000000410e-01 3.472499999999999892e-02 9.853174178875937494e-01
1.382809999999999945e+03 1.018650000000000055e+00 3.559869999999999701e-02 9.844360538965112317e-01
1.382839999999999918e+03 1.011149999999999993e+00 3.546459999999999890e-02 9.835069127696762781e-01
1.382869999999999891e+03 1.002220000000000111e+00 3.532140000000000279e-02 9.825068083439844058e-01
1.382900000000000091e+03 1.060959999999999903e+00 3.629399999999999987e-02 9.814104528219478318e-01
1.382930000000000064e+03 1.011390000000000011e+00 3.543410000000000309e-02 9.801971092534900176e-01
1.382960000000000036e+03 1.023640000000000105e+00 3.566559999999999869e-02 9.788563733342464657e-01
1.382990000000000009e+03 1.045199999999999907e+00 3.612270000000000064e-02 9.773875538746175096e-01
1.383019999999999982e+03 1.053449999999999998e+00 3.614699999999999858e-02 9.757927621093244186e-01
1.383049999999999955e+03 1.011030000000000095e+00 3.546210000000000334e-02 9.740657114904276437e-01
1.383079999999999927e+03 9.681650000000000533e-01 3.468029999999999724e-02 9.721835665685359951e-01
1.383099999999999909e+03 9.653119999999999479e-01 3.468170000000000280e-02 9.701065405465998381e-01
1.383130000000000109e+03 9.521509999999999696e-01 3.437690000000000190e-02 9.677899668004769085e-01
1.383160000000000082e+03 9.255170000000000341e-01 3.389650000000000302e-02 9.651988645463631666e-01
1.383190000000000055e+03 9.772610000000000463e-01 3.484269999999999728e-02 9.623129244196916288e-01
1.383220000000000027e+03 9.969749999999999446e-01 3.519970000000000043e-02 9.591062022934684350e-01
1.383250000000000000e+03 9.701419999999999488e-01 3.468929999999999930e-02 9.555100653052108761e-01
1.383279999999999973e+03 9.543449999999999989e-01 3.443369999999999764e-02 9.514004908085351708e-01
1.383309999999999945e+03 9.723889999999999478e-01 3.488650000000000084e-02 9.466214736113223172e-01
1.383339999999999918e+03 1.021030000000000104e+00 3.566699999999999732e-02 9.410448934957250655e-01
1.383369999999999891e+03 9.980109999999999815e-01 3.522449999999999887e-02 9.346146043628159594e-01
1.383400000000000091e+03 9.718970000000000109e-01 3.486700000000000216e-02 9.273367482526757577e-01
1.383430000000000064e+03 9.799160000000000093e-01 3.490050000000000097e-02 9.192381462790150115e-01
1.383460000000000036e+03 9.798219999999999708e-01 3.500129999999999908e-02 9.102840703938921418e-01
1.383490000000000009e+03 9.222390000000000310e-01 3.387400000000000133e-02 9.002520426224515093e-01
1.383519999999999982e+03 9.101970000000000338e-01 3.381270000000000109e-02 8.885592425251673809e-01
1.383549999999999955e+03 9.202630000000000532e-01 3.386070000000000052e-02 8.741428812294973483e-01
1.383579999999999927e+03 8.814140000000000308e-01 3.310760000000000092e-02 8.553608711465326975e-01
1.383609999999999900e+03 8.351380000000000470e-01 3.223770000000000108e-02 8.298553470464107296e-01
1.383640000000000100e+03 8.695990000000000109e-01 3.287339999999999707e-02 7.946676726470882635e-01
1.383670000000000073e+03 8.358750000000000346e-01 3.230569999999999969e-02 7.463280373069047791e-01
1.383700000000000045e+03 8.331990000000000229e-01 3.241779999999999662e-02 6.820226269818581155e-01
1.383730000000000018e+03 6.837750000000000217e-01 2.978710000000000038e-02 6.001128321408836230e-01
1.383759999999999991e+03 5.409190000000000387e-01 2.650370000000000156e-02 5.018165077202217939e-01
1.383789999999999964e+03 3.819489999999999830e-01 2.308850000000000138e-02 3.941798899558537350e-01
1.383819999999999936e+03 2.473039999999999961e-01 1.937890000000000099e-02 2.902728486501519600e-01
1.383849999999999909e+03 1.605540000000000023e-01 1.580049999999999857e-02 2.033279868366924537e-01
1.383880000000000109e+03 9.791009999999999991e-02 1.216420000000000001e-02 1.393871543826019077e-01
1.383910000000000082e+03 5.216019999999999684e-02 9.857219999999999871e-03 9.648184994744297971e-02
1.383940000000000055e+03 5.597649999999999848e-02 9.393779999999999145e-03 6.915537800812635028e-02
1.383970000000000027e+03 5.161120000000000291e-02 8.706800000000000650e-03 5.236163386397361952e-02
1.384000000000000000e+03 3.966379999999999906e-02 7.575339999999999852e-03 4.270715335340328350e-02
1.384029999999999973e+03 2.559540000000000079e-02 6.200080000000000174e-03 3.812510243957053374e-02
1.384059999999999945e+03 3.177750000000000019e-02 6.740180000000000130e-03 3.763686188961519463e-02
1.384089999999999918e+03 2.569969999999999893e-02 6.366369999999999668e-03 4.125889611520371786e-02
1.384119999999999891e+03 3.497039999999999871e-02 7.434950000000000066e-03 5.002051931273465701e-02
1.384150000000000091e+03 5.185970000000000163e-02 8.642429999999999557e-03 6.614418075185024559e-02
1.384180000000000064e+03 6.173979999999999746e-02 9.312529999999999419e-03 9.354120344835674394e-02
1.384210000000000036e+03 1.041679999999999967e-01 1.283160000000000030e-02 1.377967292356645224e-01
1.384240000000000009e+03 1.550209999999999921e-01 1.608139999999999917e-02 2.040611524595569160e-01
1.384269999999999982e+03 2.244960000000000011e-01 2.015739999999999893e-02 2.924304986931237083e-01
1.384299999999999955e+03 4.051560000000000161e-01 2.387289999999999898e-02 3.948614631990506885e-01
1.384329999999999927e+03 5.431799999999999962e-01 2.713130000000000056e-02 4.986360833902009349e-01
1.384359999999999900e+03 6.740129999999999733e-01 2.935259999999999952e-02 5.932514227544807284e-01
1.384390000000000100e+03 7.913890000000000091e-01 3.149749999999999772e-02 6.736401661774847893e-01
1.384420000000000073e+03 7.994599999999999485e-01 3.152839999999999809e-02 7.385894859977514271e-01
1.384450000000000045e+03 8.689789999999999459e-01 3.285740000000000188e-02 7.887991727806994424e-01
1.384480000000000018e+03 8.771020000000000483e-01 3.300739999999999924e-02 8.263206887628755659e-01
1.384509999999999991e+03 8.627510000000000456e-01 3.285079999999999945e-02 8.537554858552921511e-01
1.384539999999999964e+03 9.477959999999999718e-01 3.433590000000000253e-02 8.737365151891818282e-01
1.384569999999999936e+03 9.593129999999999713e-01 3.453760000000000163e-02 8.885843084136934023e-01
1.384599999999999909e+03 1.032869999999999955e+00 3.580520000000000230e-02 9.001541125879295446e-01
1.384630000000000109e+03 9.893110000000000515e-01 3.502349999999999908e-02 9.097870724857939351e-01
1.384660000000000082e+03 9.502549999999999608e-01 3.431939999999999991e-02 9.182869938554037992e-01
1.384690000000000055e+03 1.004369999999999985e+00 3.527609999999999774e-02 9.260466193725099826e-01
1.384720000000000027e+03 1.016480000000000050e+00 3.551850000000000146e-02 9.331921441485271362e-01
1.384750000000000000e+03 9.772129999999999983e-01 3.482659999999999922e-02 9.396878827830469350e-01
1.384779999999999973e+03 9.334289999999999532e-01 3.421430000000000304e-02 9.454517246662086372e-01
1.384809999999999945e+03 9.620940000000000047e-01 3.462629999999999875e-02 9.504642540698483577e-01
1.384839999999999918e+03 1.059739999999999904e+00 3.623439999999999994e-02 9.548177932145445190e-01
1.384869999999999891e+03 9.828599999999999559e-01 3.503420000000000145e-02 9.586874728100053256e-01
1.384900000000000091e+03 1.014369999999999994e+00 3.545220000000000315e-02 9.622514721938278948e-01
1.384930000000000064e+03 9.978259999999999907e-01 3.517630000000000062e-02 9.656291499116607113e-01
1.384960000000000036e+03 1.043940000000000090e+00 3.599949999999999678e-02 9.688665247702813454e-01
1.384990000000000009e+03 9.862340000000000551e-01 3.497750000000000165e-02 9.719530559822310289e-01
1.385019999999999982e+03 9.743479999999999919e-01 3.492730000000000140e-02 9.748474669878676169e-01
1.385049999999999955e+03 1.006269999999999998e+00 3.539090000000000291e-02 9.775064296803639419e-01
1.385079999999999927e+03 9.418499999999999650e-01 3.423029999999999823e-02 9.799012945871137248e-01
1.385109999999999900e+03 1.004170000000000007e+00 3.539830000000000060e-02 9.820188847131979815e-01
1.385140000000000100e+03 9.904450000000000198e-01 3.506580000000000114e-02 9.838610715793091321e-01
1.385170000000000073e+03 1.020329999999999959e+00 3.559640000000000026e-02 9.854457177347016872e-01
1.385200000000000045e+03 9.393479999999999608e-01 3.415800000000000086e-02 9.868048635381561073e-01
1.385230000000000018e+03 1.007530000000000037e+00 3.540179999999999716e-02 9.879762853418339041e-01
1.385259999999999991e+03 9.738919999999999799e-01 3.475869999999999654e-02 9.889957237330456730e-01
1.385289999999999964e+03 9.767010000000000414e-01 3.495179999999999815e-02 9.898937558422487015e-01
1.385319999999999936e+03 9.797219999999999818e-01 3.500230000000000008e-02 9.906944629551530657e-01
1.385349999999999909e+03 1.017419999999999991e+00 3.551399999999999696e-02 9.914158264488965866e-01
1.385380000000000109e+03 9.547430000000000083e-01 3.441369999999999846e-02 9.920705377985097329e-01
1.385410000000000082e+03 9.480979999999999963e-01 3.430810000000000110e-02 9.926666768234611027e-01
1.385440000000000055e+03 9.505120000000000235e-01 3.437969999999999915e-02 9.932088047264063801e-01
1.385470000000000027e+03 1.012129999999999974e+00 3.542379999999999834e-02 9.936993650225817154e-01
1.385500000000000000e+03 9.865300000000000180e-01 3.497259999999999952e-02 9.941402189848509430e-01
1.385529999999999973e+03 9.938310000000000199e-01 3.521269999999999956e-02 9.945340159040897410e-01
1.385559999999999945e+03 1.014680000000000026e+00 3.550129999999999952e-02 9.948851252928251343e-01
1.385589999999999918e+03 1.007609999999999895e+00 3.532350000000000073e-02 9.951989464332826607e-01
1.385619999999999891e+03 9.446229999999999905e-01 3.427759999999999835e-02 9.954801053937699651e-01
1.385650000000000091e+03 9.712079999999999602e-01 3.470209999999999961e-02 9.957315879612028686e-01
1.385680000000000064e+03 9.230620000000000491e-01 3.381959999999999827e-02 9.959555450895679618e-01
1.385710000000000036e+03 9.671499999999999542e-01 3.462740000000000262e-02 9.961546942539650784e-01
1.385740000000000009e+03 1.031519999999999992e+00 3.574259999999999937e-02 9.963329237623473889e-01
1.385769999999999982e+03 1.002320000000000100e+00 3.527919999999999667e-02 9.964948319630760887e-01
1.385799999999999955e+03 1.012520000000000087e+00 3.547739999999999921e-02 9.966449782401268775e-01
1.385829999999999927e+03 9.840219999999999523e-01 3.496699999999999808e-02 9.967871074829478539e-01
1.385859999999999900e+03 9.271289999999999809e-01 3.391140000000000126e-02 9.969237918661107978e-01
1.385890000000000100e+03 9.739950000000000552e-01 3.477149999999999685e-02 9.970563056884685915e-01
1.385920000000000073e+03 1.004869999999999930e+00 3.530609999999999998e-02 9.971848296169054660e-01
1.385950000000000045e+03 9.781079999999999774e-01 3.500930000000000014e-02 9.973088532039573462e-01
1.385980000000000018e+03 1.013060000000000072e+00 3.553440000000000071e-02 9.974276665886535609e-01
1.386009999999999991e+03 1.089439999999999964e+00 3.679269999999999763e-02 9.975407508611570107e-01
1.386039999999999964e+03 1.078400000000000025e+00 3.666690000000000227e-02 9.976478660948703281e-01
1.386069999999999936e+03 1.036720000000000086e+00 3.586210000000000092e-02 9.977489714530612952e-01
1.386099999999999909e+03 1.009470000000000089e+00 3.543199999999999822e-02 9.978440936353034640e-01
1.386130000000000109e+03 9.922320000000000029e-01 3.506870000000000126e-02 9.979332953670316808e-01
1.386160000000000082e+03 1.028140000000000054e+00 3.572879999999999806e-02 9.980166976168485249e-01
1.386190000000000055e+03 1.015840000000000076e+00 3.555679999999999952e-02 9.980944294903397740e-01
1.386220000000000027e+03 1.016580000000000039e+00 3.551039999999999752e-02 9.981666024670500237e-01
1.386250000000000000e+03 9.844019999999999992e-01 3.495340000000000252e-02 9.982332479763985633e-01
1.386279999999999973e+03 9.725030000000000063e-01 3.496370000000000033e-02 9.982943972136445465e-01
1.386309999999999945e+03 1.059549999999999992e+00 3.631709999999999799e-02 9.983501812828851074e-01
1.386339999999999918e+03 1.066330000000000000e+00 3.644490000000000229e-02 9.984009718749172757e-01
1.386369999999999891e+03 1.014869999999999939e+00 3.566579999999999750e-02 9.984473826962733112e-01
1.386400000000000091e+03 9.705519999999999703e-01 3.483510000000000079e-02 9.984900900766570109e-01
1.386430000000000064e+03 1.011030000000000095e+00 3.542309999999999903e-02 9.985297070587642043e-01
1.386450000000000045e+03 9.390779999999999683e-01 3.414729999999999849e-02 9.985667574527308243e-01
1.386480000000000018e+03 1.003989999999999938e+00 3.529170000000000224e-02 9.986017111834250004e-01
1.386509999999999991e+03 1.035439999999999916e+00 3.598130000000000078e-02 9.986350029944808249e-01
1.386539999999999964e+03 1.016399999999999970e+00 3.551069999999999921e-02 9.986670343758637935e-01
1.386569999999999936e+03 9.379859999999999864e-01 3.412849999999999911e-02 9.986981777027834628e-01
1.386599999999999909e+03 1.007880000000000109e+00 3.534770000000000273e-02 9.987287382896903321e-01
1.386630000000000109e+03 9.775610000000000133e-01 3.483619999999999772e-02 9.987589329609514177e-01
1.386660000000000082e+03 1.010289999999999910e+00 3.538670000000000010e-02 9.987888908040313263e-01
1.386690000000000055e+03 9.505510000000000348e-01 3.442139999999999783e-02 9.988186990993971337e-01
1.386720000000000027e+03 9.308880000000000488e-01 3.396550000000000263e-02 9.988483975833659656e-01
1.386750000000000000e+03 9.887569999999999970e-01 3.511770000000000169e-02 9.988779600739294828e-01
1.386779999999999973e+03 9.997169999999999668e-01 3.528509999999999980e-02 9.989072618192393893e-01
1.386809999999999945e+03 9.705430000000000446e-01 3.472920000000000174e-02 9.989361040698685468e-01
1.386839999999999918e+03 9.690069999999999517e-01 3.464600000000000318e-02 9.989642725897330822e-01
1.386869999999999891e+03 1.040079999999999893e+00 3.592589999999999673e-02 9.989916030322573137e-01
1.386900000000000091e+03 9.562249999999999917e-01 3.446060000000000095e-02 9.990180006366163878e-01
1.386930000000000064e+03 9.923840000000000439e-01 3.512450000000000294e-02 9.990434082347493527e-01
1.386960000000000036e+03 1.000110000000000054e+00 3.531560000000000255e-02 9.990677582014625413e-01
1.386990000000000009e+03 9.699659999999999949e-01 3.469839999999999730e-02 9.990909353561536754e-01
1.387019999999999982e+03 9.787519999999999554e-01 3.486759999999999859e-02 9.991127915045939778e-01
1.387049999999999955e+03 1.021120000000000028e+00 3.561620000000000064e-02 9.991332191362790605e-01
1.387079999999999927e+03 1.027320000000000011e+00 3.568620000000000125e-02 9.991522243487701571e-01
1.387109999999999900e+03 1.004070000000000018e+00 3.533189999999999942e-02 9.991699349529856722e-01
1.387140000000000100e+03 9.559239999999999959e-01 3.445829999999999727e-02 9.991865322939631477e-01
1.387170000000000073e+03 1.045330000000000092e+00 3.597729999999999678e-02 9.992021922672468248e-01
1.387200000000000045e+03 9.994229999999999503e-01 3.519909999999999706e-02 9.992170530961718145e-01
1.387230000000000018e+03 1.011900000000000022e+00 3.539160000000000222e-02 9.992312475003208849e-01
1.387259999999999991e+03 9.992510000000000003e-01 3.525009999999999949e-02 9.992449388541213562e-01
1.387289999999999964e+03 9.705070000000000086e-01 3.467239999999999905e-02 9.992583287524668956e-01
1.387319999999999936e+03 9.915779999999999594e-01 3.506270000000000220e-02 9.992716064963996780e-01
1.387349999999999909e+03 9.756479999999999597e-01 3.477600000000000136e-02 9.992849061456915427e-01
1.387380000000000109e+03 9.328140000000000320e-01 3.411399999999999849e-02 9.992983061420623869e-01
1.387410000000000082e+03 9.709999999999999742e-01 3.473419999999999980e-02 9.993118524579344131e-01
1.387440000000000055e+03 9.928129999999999455e-01 3.509450000000000069e-02 9.993255617859658768e-01
1.387470000000000027e+03 1.002610000000000001e+00 3.523699999999999749e-02 9.993393879697904936e-01
1.387500000000000000e+03 9.996850000000000458e-01 3.518170000000000325e-02 9.993532189096040463e-01
1.387529999999999973e+03 1.004539999999999988e+00 3.528629999999999961e-02 9.993669091516771408e-01
1.387559999999999945e+03 1.034939999999999971e+00 3.578409999999999924e-02 9.993803057150426605e-01
1.387589999999999918e+03 9.813359999999999861e-01 3.488220000000000209e-02 9.993932586632416903e-01
1.387619999999999891e+03 9.791790000000000216e-01 3.488089999999999941e-02 9.994056123666017477e-01
1.387650000000000091e+03 1.026310000000000056e+00 3.574829999999999675e-02 9.994172159925055476e-01
1.387680000000000064e+03 1.013460000000000027e+00 3.548749999999999821e-02 9.994279275237398785e-01
1.387710000000000036e+03 1.011130000000000084e+00 3.538999999999999785e-02 9.994376237521552797e-01
1.387740000000000009e+03 9.348940000000000028e-01 3.404800000000000187e-02 9.994462206620435829e-01
1.387769999999999982e+03 9.940050000000000274e-01 3.507430000000000270e-02 9.994536930636994665e-01
1.387799999999999955e+03 1.007100000000000106e+00 3.529539999999999761e-02 9.994600904778733197e-01
1.387829999999999927e+03 9.218750000000000000e-01 3.392379999999999701e-02 9.994655355494777016e-01
1.387859999999999900e+03 1.025039999999999951e+00 3.570500000000000063e-02 9.994702109729657336e-01
1.387890000000000100e+03 1.019719999999999960e+00 3.557119999999999727e-02 9.994743377480131974e-01
1.387920000000000073e+03 9.892990000000000395e-01 3.510719999999999813e-02 9.994781478606441505e-01
1.387950000000000045e+03 1.047879999999999923e+00 3.600769999999999665e-02 9.994818561299874116e-01
1.387980000000000018e+03 9.415710000000000468e-01 3.418670000000000042e-02 9.994856379947205660e-01
1.388009999999999991e+03 9.368370000000000308e-01 3.403559999999999919e-02 9.994896299692413999e-01
1.388039999999999964e+03 1.000629999999999908e+00 3.519189999999999818e-02 9.994939378546965347e-01
1.388069999999999936e+03 1.018129999999999979e+00 3.551499999999999796e-02 9.994986525458989801e-01
1.388099999999999909e+03 1.029290000000000038e+00 3.567610000000000225e-02 9.995038504623060538e-01
1.388130000000000109e+03 1.018599999999999950e+00 3.549929999999999752e-02 9.995095835529111961e-01
1.388160000000000082e+03 1.053879999999999928e+00 3.611729999999999802e-02 9.995158706392514025e-01
1.388190000000000055e+03 9.679299999999999571e-01 3.470829999999999749e-02 9.995226850138202446e-01
1.388220000000000027e+03 1.031770000000000076e+00 3.574190000000000006e-02 9.995299370036692110e-01
1.388250000000000000e+03 9.993900000000000006e-01 3.522209999999999924e-02 9.995374619805852401e-01
1.388279999999999973e+03 9.625979999999999537e-01 3.449640000000000345e-02 9.995450252559796578e-01
1.388309999999999945e+03 1.080170000000000075e+00 3.654079999999999828e-02 9.995523646329519396e-01
1.388339999999999918e+03 1.075099999999999945e+00 3.651809999999999778e-02 9.995592391947718536e-01
1.388369999999999891e+03 9.702899999999999858e-01 3.463159999999999850e-02 9.995654883372465660e-01
1.388400000000000091e+03 1.052950000000000053e+00 3.609600000000000308e-02 9.995710495586677125e-01
1.388430000000000064e+03 9.929499999999999993e-01 3.505749999999999839e-02 9.995759381489511819e-01
1.388460000000000036e+03 1.020450000000000079e+00 3.556150000000000283e-02 9.995801913935143945e-01
1.388490000000000009e+03 1.039500000000000091e+00 3.583370000000000305e-02 9.995838300862149861e-01
1.388519999999999982e+03 9.539090000000000069e-01 3.436410000000000159e-02 9.995868657551935099e-01
1.388549999999999955e+03 1.006629999999999914e+00 3.528040000000000342e-02 9.995893291991969631e-01
1.388579999999999927e+03 9.640039999999999720e-01 3.447420000000000345e-02 9.995912881721166210e-01
1.388609999999999900e+03 9.481469999999999620e-01 3.421749999999999792e-02 9.995928668495608349e-01
1.388640000000000100e+03 1.024350000000000094e+00 3.556929999999999814e-02 9.995942414636724838e-01
1.388670000000000073e+03 9.620419999999999527e-01 3.442060000000000258e-02 9.995956251383197877e-01
1.388700000000000045e+03 9.399840000000000417e-01 3.401749999999999913e-02 9.995972600797543572e-01
1.388730000000000018e+03 9.873769999999999492e-01 3.485100000000000003e-02 9.995996809733372901e-01
1.388759999999999991e+03 9.811050000000000049e-01 3.474880000000000330e-02 9.996056457549047369e-01
1.388789999999999964e+03 9.634200000000000541e-01 3.450450000000000045e-02 9.996212057375337690e-01
1.388819999999999936e+03 9.381629999999999692e-01 3.398389999999999744e-02 9.996396641617719681e-01
1.388849999999999909e+03 9.681440000000000046e-01 3.452140000000000070e-02 9.996583414804591783e-01
1.388880000000000109e+03 9.616390000000000216e-01 3.442209999999999714e-02 9.996771831344340997e-01
1.388910000000000082e+03 1.023099999999999898e+00 3.545910000000000034e-02 9.996961429510922148e-01
1.388940000000000055e+03 1.050200000000000022e+00 3.590990000000000154e-02 9.997152040479427848e-01
1.388970000000000027e+03 1.036110000000000086e+00 3.571150000000000019e-02 9.997343621008872860e-01
1.389000000000000000e+03 9.594549999999999468e-01 3.443890000000000146e-02 9.997536006541499765e-01
1.389029999999999973e+03 1.031250000000000000e+00 3.576320000000000193e-02 9.997728686809760346e-01
1.389059999999999945e+03 9.695009999999999462e-01 3.448659999999999920e-02 9.997920683389870389e-01
1.389089999999999918e+03 1.004709999999999992e+00 3.512320000000000025e-02 9.998110687069404756e-01
1.389119999999999891e+03 9.730180000000000495e-01 3.454850000000000282e-02 9.998297377352527437e-01
1.389150000000000091e+03 9.889649999999999830e-01 3.480819999999999748e-02 9.998479840730453150e-01
1.389180000000000064e+03 9.590670000000000028e-01 3.429179999999999728e-02 9.998657202723386650e-01
1.389210000000000036e+03 9.601939999999999920e-01 3.429859999999999853e-02 9.998775985385677245e-01
1.389240000000000009e+03 9.237079999999999735e-01 3.364410000000000317e-02 9.998813716851554512e-01
1.389269999999999982e+03 1.014950000000000019e+00 3.525709999999999955e-02 9.998832936718300424e-01
1.389299999999999955e+03 9.780910000000000437e-01 3.470560000000000311e-02 9.998849268157514736e-01
1.389329999999999927e+03 9.579720000000000457e-01 3.438159999999999827e-02 9.998864641877982518e-01
1.389359999999999900e+03 1.000920000000000032e+00 3.501540000000000208e-02 9.998879350895124585e-01
1.389390000000000100e+03 1.046839999999999993e+00 3.580649999999999805e-02 9.998893512998427990e-01
1.389420000000000073e+03 1.063039999999999985e+00 3.615089999999999970e-02 9.998907206572970052e-01
1.389450000000000045e+03 1.029320000000000013e+00 3.553819999999999896e-02 9.998920489010694190e-01
1.389480000000000018e+03 1.027770000000000072e+00 3.545179999999999859e-02 9.998933403661515174e-01
1.389509999999999991e+03 9.863979999999999970e-01 3.473860000000000142e-02 9.998945983669775828e-01
1.389539999999999964e+03 9.866829999999999767e-01 3.479299999999999754e-02 9.998958254468613971e-01
1.389569999999999936e+03 9.771050000000000013e-01 3.452539999999999776e-02 9.998970235526387640e-01
1.389599999999999909e+03 9.483570000000000055e-01 3.404019999999999962e-02 9.998981940928229895e-01
1.389630000000000109e+03 9.898059999999999636e-01 3.474270000000000136e-02 9.998993380859442226e-01
1.389660000000000082e+03 9.940339999999999732e-01 3.484219999999999678e-02 9.999004560486230986e-01
1.389690000000000055e+03 1.007560000000000011e+00 3.509099999999999719e-02 9.999015483725806064e-01
1.389720000000000027e+03 9.716519999999999602e-01 3.449590000000000295e-02 9.999026151831343912e-01
1.389750000000000000e+03 9.795420000000000238e-01 3.454739999999999894e-02 9.999036564943207805e-01
1.389779999999999973e+03 1.003060000000000063e+00 3.504890000000000089e-02 9.999046730695408947e-01
1.389799999999999955e+03 1.007379999999999942e+00 3.504240000000000133e-02 9.999056674844186698e-01
1.389829999999999927e+03 9.857150000000000079e-01 3.479550000000000004e-02 9.999066440335053763e-01
1.389859999999999900e+03 9.587670000000000359e-01 3.419649999999999773e-02 9.999076067383435573e-01
1.389890000000000100e+03 9.418600000000000305e-01 3.385559999999999958e-02 9.999085577073101305e-01
1.389920000000000073e+03 9.853650000000000464e-01 3.463750000000000162e-02 9.999094973091378069e-01
1.389950000000000045e+03 9.937869999999999759e-01 3.479569999999999885e-02 9.999104251955434064e-01
1.389980000000000018e+03 1.052040000000000086e+00 3.578119999999999912e-02 9.999113411137754426e-01
1.390009999999999991e+03 1.031689999999999996e+00 3.549770000000000009e-02 9.999122446913324413e-01
1.390039999999999964e+03 1.011400000000000077e+00 3.507770000000000332e-02 9.999131356189694397e-01
1.390069999999999936e+03 1.034149999999999903e+00 3.555610000000000021e-02 9.999140136714237403e-01
1.390099999999999909e+03 9.841990000000000460e-01 3.463650000000000062e-02 9.999148787211754597e-01
1.390130000000000109e+03 9.733300000000000285e-01 3.436759999999999815e-02 9.999157307543768969e-01
1.390160000000000082e+03 9.731929999999999747e-01 3.438100000000000184e-02 9.999165698344797404e-01
1.390190000000000055e+03 9.848550000000000360e-01 3.462500000000000300e-02 9.999173961240644948e-01
1.390220000000000027e+03 1.003649999999999931e+00 3.494280000000000302e-02 9.999182098541786745e-01
1.390250000000000000e+03 1.022270000000000012e+00 3.518229999999999968e-02 9.999190112898103111e-01
1.390279999999999973e+03 9.771900000000000031e-01 3.440510000000000096e-02 9.999198007150057466e-01
1.390309999999999945e+03 1.006490000000000107e+00 3.488100000000000228e-02 9.999205784145782649e-01
1.390339999999999918e+03 9.924490000000000256e-01 3.464860000000000162e-02 9.999213446535087924e-01
1.390369999999999891e+03 9.745949999999999891e-01 3.437500000000000278e-02 9.999220996704181186e-01
1.390400000000000091e+03 9.792030000000000456e-01 3.438259999999999927e-02 9.999228436807984233e-01
1.390430000000000064e+03 9.106130000000000058e-01 3.322760000000000297e-02 9.999235768978704808e-01
1.390460000000000036e+03 9.538320000000000132e-01 3.395440000000000264e-02 9.999242995405667189e-01
1.390490000000000009e+03 1.007530000000000037e+00 3.494069999999999815e-02 9.999250118339771953e-01
1.390519999999999982e+03 9.848759999999999737e-01 3.456089999999999857e-02 9.999257140020025858e-01
1.390549999999999955e+03 1.001810000000000089e+00 3.490240000000000009e-02 9.999264062648430818e-01
1.390579999999999927e+03 1.045190000000000063e+00 3.581030000000000324e-02 9.999270888400421109e-01
1.390609999999999900e+03 9.863669999999999938e-01 3.454299999999999732e-02 9.999277619389057570e-01
1.390640000000000100e+03 9.796350000000000335e-01 3.435989999999999878e-02 9.999284257704538215e-01
1.390670000000000073e+03 9.792079999999999673e-01 3.450190000000000201e-02 9.999290805412592853e-01
1.390700000000000045e+03 1.009300000000000086e+00 3.485719999999999791e-02 9.999297264524038553e-01
1.390730000000000018e+03 1.028680000000000039e+00 3.523060000000000080e-02 9.999303637003436052e-01
1.390759999999999991e+03 1.013160000000000061e+00 3.500650000000000289e-02 9.999309924736697885e-01
1.390789999999999964e+03 1.034780000000000033e+00 3.531770000000000048e-02 9.999316129531584663e-01
1.390819999999999936e+03 9.972020000000000328e-01 3.465820000000000012e-02 9.999322253129544480e-01
1.390849999999999909e+03 9.921720000000000539e-01 3.453189999999999732e-02 9.999328297174907565e-01
1.390880000000000109e+03 1.022180000000000089e+00 3.512699999999999850e-02 9.999334263229022746e-01
1.390910000000000082e+03 9.376360000000000250e-01 3.359750000000000236e-02 9.999340152787848934e-01
1.390940000000000055e+03 9.256499999999999728e-01 3.349989999999999912e-02 9.999345967361236154e-01
1.390970000000000027e+03 9.846960000000000157e-01 3.441190000000000221e-02 9.999351708557149276e-01
1.391000000000000000e+03 9.850489999999999524e-01 3.449100000000000082e-02 9.999357378022012410e-01
1.391029999999999973e+03 1.001600000000000046e+00 3.467139999999999805e-02 9.999362977479875347e-01
1.391059999999999945e+03 9.803560000000000052e-01 3.432980000000000059e-02 9.999368508720571924e-01
1.391089999999999918e+03 1.022189999999999932e+00 3.498359999999999664e-02 9.999373973650155234e-01
1.391119999999999891e+03 9.632579999999999476e-01 3.401749999999999913e-02 9.999379374239701912e-01
1.391150000000000091e+03 1.007260000000000044e+00 3.475759999999999961e-02 9.999384712490441141e-01
1.391180000000000064e+03 9.844899999999999762e-01 3.435089999999999671e-02 9.999389990400551209e-01
1.391210000000000036e+03 9.936690000000000245e-01 3.447809999999999764e-02 9.999395209685193464e-01
1.391240000000000009e+03 1.033770000000000078e+00 3.532740000000000186e-02 9.999400371907655183e-01
1.391269999999999982e+03 1.039579999999999949e+00 3.523740000000000205e-02 9.999405478722737106e-01
1.391299999999999955e+03 9.752480000000000038e-01 3.419849999999999973e-02 9.999410532265180507e-01
1.391329999999999927e+03 9.681619999999999671e-01 3.405070000000000319e-02 9.999415535001182631e-01
1.391359999999999900e+03 9.746820000000000483e-01 3.414190000000000280e-02 9.999420489228946218e-01
1.391390000000000100e+03 1.003579999999999917e+00 3.467459999999999987e-02 9.999425396464722837e-01
1.391420000000000073e+03 9.756479999999999597e-01 3.414670000000000205e-02 9.999430257652411891e-01
1.391450000000000045e+03 9.800910000000000455e-01 3.440130000000000271e-02 9.999435072227778054e-01
1.391480000000000018e+03 9.178159999999999652e-01 3.323120000000000240e-02 9.999439839207578951e-01
1.391509999999999991e+03 9.338969999999999771e-01 3.340459999999999957e-02 9.999444557467486172e-01
1.391539999999999964e+03 1.014489999999999892e+00 3.485930000000000278e-02 9.999449226859220552e-01
1.391569999999999936e+03 9.939869999999999539e-01 3.443539999999999796e-02 9.999453848703804271e-01
1.391599999999999909e+03 1.019549999999999956e+00 3.483479999999999910e-02 9.999458425267524486e-01
1.391630000000000109e+03 9.718430000000000124e-01 3.393329999999999957e-02 9.999462958645320976e-01
1.391660000000000082e+03 9.858569999999999833e-01 3.429480000000000028e-02 9.999467451692175546e-01
1.391690000000000055e+03 1.016159999999999952e+00 3.476409999999999917e-02 9.999471908497847839e-01
1.391720000000000027e+03 9.739700000000000024e-01 3.406270000000000131e-02 9.999476335513830527e-01
1.391750000000000000e+03 1.030929999999999902e+00 3.503019999999999745e-02 9.999480740206637686e-01
1.391779999999999973e+03 1.015730000000000022e+00 3.475620000000000098e-02 9.999485129501589631e-01
1.391809999999999945e+03 1.022070000000000034e+00 3.485089999999999716e-02 9.999489507412610001e-01
1.391839999999999918e+03 9.835099999999999953e-01 3.416149999999999742e-02 9.999493874610898558e-01
1.391869999999999891e+03 9.714279999999999582e-01 3.397370000000000251e-02 9.999498229760583889e-01
1.391900000000000091e+03 9.862410000000000343e-01 3.434740000000000015e-02 9.999502572470997386e-01
1.391930000000000064e+03 9.632380000000000386e-01 3.383219999999999977e-02 9.999506905318144012e-01
1.391960000000000036e+03 9.604059999999999819e-01 3.384050000000000252e-02 9.999511235433860001e-01
1.391990000000000009e+03 9.658870000000000511e-01 3.384179999999999827e-02 9.999515572239366934e-01
1.392019999999999982e+03 9.456670000000000353e-01 3.351980000000000237e-02 9.999519924265914961e-01
1.392049999999999955e+03 9.706399999999999473e-01 3.393589999999999801e-02 9.999524295609247826e-01
1.392079999999999927e+03 1.007290000000000019e+00 3.450190000000000201e-02 9.999528689614904930e-01
1.392109999999999900e+03 9.875880000000000214e-01 3.430119999999999697e-02 9.999533120915111706e-01
1.392140000000000100e+03 9.715819999999999457e-01 3.389070000000000277e-02 9.999537619623378726e-01
1.392170000000000073e+03 9.934699999999999642e-01 3.429349999999999760e-02 9.999542228715558867e-01
1.392200000000000045e+03 9.490030000000000410e-01 3.346829999999999944e-02 9.999546986030988238e-01
1.392230000000000018e+03 9.501190000000000468e-01 3.355910000000000143e-02 9.999551909140166339e-01
1.392259999999999991e+03 9.576270000000000060e-01 3.371330000000000160e-02 9.999556997033817174e-01
1.392289999999999964e+03 9.796099999999999808e-01 3.419830000000000092e-02 9.999562236330201692e-01
1.392319999999999936e+03 9.507649999999999713e-01 3.347929999999999656e-02 9.999567620881543162e-01
1.392349999999999909e+03 9.605839999999999934e-01 3.365649999999999892e-02 9.999573178956163710e-01
1.392380000000000109e+03 9.651199999999999779e-01 3.378339999999999815e-02 9.999579025166729362e-01
1.392410000000000082e+03 9.532329999999999970e-01 3.351119999999999793e-02 9.999585389700585969e-01
1.392440000000000055e+03 9.816369999999999818e-01 3.397410000000000013e-02 9.999592630211612265e-01
1.392470000000000027e+03 9.708020000000000538e-01 3.379069999999999990e-02 9.999601319538173883e-01
1.392500000000000000e+03 9.950269999999999948e-01 3.420349999999999779e-02 9.999612169603563361e-01
1.392529999999999973e+03 1.007419999999999982e+00 3.438460000000000127e-02 9.999626261746004108e-01
1.392559999999999945e+03 9.901780000000000026e-01 3.409020000000000106e-02 9.999644622415309048e-01
1.392589999999999918e+03 1.037500000000000089e+00 3.498869999999999758e-02 9.999668451370726796e-01
1.392619999999999891e+03 9.539710000000000134e-01 3.350809999999999900e-02 9.999698954928204486e-01
1.392650000000000091e+03 9.818120000000000180e-01 3.393700000000000189e-02 9.999736253562941934e-01
