# wave	flux	error	model
# 
1.232059999999999945e+03 1.001430100000000101e+00 3.125091599999999664e-02 9.999999683568117081e-01
1.232089999999999918e+03 1.064706600000000059e+00 3.223830700000000077e-02 9.999999674144509632e-01
1.232119999999999891e+03 9.889116700000000204e-01 3.112151599999999838e-02 9.999999664293953705e-01
1.232150000000000091e+03 9.972589099999999984e-01 3.131048100000000112e-02 9.999999653990260251e-01
1.232180000000000064e+03 9.902285400000000459e-01 3.120925899999999961e-02 9.999999643205205180e-01
1.232210000000000036e+03 1.031430199999999964e+00 3.192901599999999757e-02 9.999999631908328412e-01
1.232240000000000009e+03 9.773576600000000170e-01 3.103392799999999882e-02 9.999999620066725159e-01
1.232269999999999982e+03 9.589946299999999590e-01 3.082275300000000134e-02 9.999999607644798338e-01
1.232299999999999955e+03 9.707464700000000279e-01 3.100031500000000051e-02 9.999999594603996567e-01
1.232329999999999927e+03 9.987880399999999881e-01 3.158171099999999842e-02 9.999999580902513285e-01
1.232359999999999900e+03 1.024371900000000002e+00 3.193571399999999699e-02 9.999999566494948144e-01
1.232390000000000100e+03 1.013516199999999978e+00 3.186089400000000071e-02 9.999999551331931746e-01
1.232420000000000073e+03 9.953600900000000307e-01 3.152634599999999676e-02 9.999999535359703762e-01
1.232450000000000045e+03 1.011712699999999909e+00 3.181638600000000205e-02 9.999999518519634423e-01
1.232480000000000018e+03 9.696156400000000009e-01 3.134069800000000017e-02 9.999999500747679404e-01
1.232509999999999991e+03 1.037760699999999980e+00 3.229913000000000228e-02 9.999999481973780302e-01
1.232539999999999964e+03 1.012483599999999928e+00 3.191725699999999749e-02 9.999999462121160754e-01
1.232569999999999936e+03 9.772710700000000195e-01 3.138275299999999934e-02 9.999999441105549280e-01
1.232599999999999909e+03 9.993101800000000479e-01 3.177012199999999786e-02 9.999999418834274456e-01
1.232630000000000109e+03 9.958800199999999769e-01 3.174617099999999664e-02 9.999999395205244612e-01
1.232660000000000082e+03 1.033652599999999921e+00 3.230388199999999904e-02 9.999999370105773222e-01
1.232690000000000055e+03 9.938812599999999886e-01 3.167791799999999935e-02 9.999999343411227759e-01
1.232720000000000027e+03 9.599191299999999538e-01 3.126477099999999676e-02 9.999999314983482046e-01
1.232750000000000000e+03 9.794026999999999594e-01 3.145070400000000294e-02 9.999999284669119914e-01
1.232779999999999973e+03 1.027242800000000011e+00 3.222374900000000292e-02 9.999999252297355756e-01
1.232809999999999945e+03 1.026077799999999929e+00 3.221209500000000309e-02 9.999999217677620900e-01
1.232839999999999918e+03 1.008331899999999948e+00 3.194390899999999950e-02 9.999999180596746973e-01
1.232869999999999891e+03 9.899455999999999811e-01 3.170148700000000042e-02 9.999999140815667431e-01
1.232900000000000091e+03 9.982533500000000393e-01 3.175928399999999874e-02 9.999999098065548431e-01
1.232930000000000064e+03 1.036355499999999985e+00 3.232137699999999836e-02 9.999999052043219150e-01
1.232960000000000036e+03 9.808314799999999778e-01 3.148874000000000117e-02 9.999999002405771664e-01
1.232990000000000009e+03 9.567018000000000466e-01 3.109853400000000059e-02 9.999998948764134976e-01
1.233019999999999982e+03 1.029477900000000057e+00 3.213644799999999802e-02 9.999998890675407814e-01
1.233049999999999955e+03 1.026187500000000030e+00 3.222057700000000025e-02 9.999998827633650444e-01
1.233079999999999927e+03 1.001090400000000047e+00 3.171626799999999885e-02 9.999998759058801312e-01
1.233109999999999900e+03 9.825675000000000381e-01 3.137383299999999681e-02 9.999998684283235573e-01
1.233140000000000100e+03 1.015465499999999910e+00 3.181545399999999996e-02 9.999998602535387082e-01
1.233170000000000073e+03 9.789418100000000234e-01 3.119544600000000167e-02 9.999998512919686666e-01
1.233200000000000045e+03 1.005860799999999999e+00 3.162025899999999778e-02 9.999998414391823021e-01
1.233230000000000018e+03 9.783016300000000331e-01 3.106419900000000067e-02 9.999998305728030612e-01
1.233259999999999991e+03 1.007270899999999969e+00 3.150447099999999917e-02 9.999998185486719260e-01
1.233289999999999964e+03 1.034883299999999950e+00 3.196241300000000202e-02 9.999998051960148349e-01
1.233319999999999936e+03 9.835843100000000172e-01 3.106314300000000139e-02 9.999997903113102549e-01
1.233349999999999909e+03 9.766599599999999937e-01 3.078764999999999974e-02 9.999997736504381285e-01
1.233380000000000109e+03 1.011678700000000042e+00 3.123200799999999860e-02 9.999997549185377643e-01
1.233410000000000082e+03 1.014487300000000092e+00 3.124240299999999845e-02 9.999997337567736455e-01
1.233440000000000055e+03 1.029619199999999957e+00 3.141013399999999928e-02 9.999997097248817246e-01
1.233470000000000027e+03 1.046418300000000023e+00 3.170432799999999690e-02 9.999996822778793870e-01
1.233500000000000000e+03 9.596506799999999782e-01 3.047459300000000121e-02 9.999996507345915164e-01
1.233529999999999973e+03 9.569896599999999642e-01 3.051122599999999893e-02 9.999996142345184413e-01
1.233559999999999945e+03 9.841411700000000096e-01 3.104949599999999935e-02 9.999995716778180554e-01
1.233579999999999927e+03 9.529168799999999662e-01 3.054017100000000137e-02 9.999995392553320261e-01
1.233609999999999900e+03 9.631091999999999986e-01 3.079079499999999928e-02 9.999994832254965882e-01
1.233640000000000100e+03 9.805158499999999666e-01 3.107951100000000064e-02 9.999994162626828498e-01
1.233670000000000073e+03 9.659648800000000257e-01 3.093950000000000172e-02 9.999993353070972812e-01
1.233700000000000045e+03 9.853621299999999472e-01 3.120049899999999959e-02 9.999992361401109919e-01
1.233730000000000018e+03 9.365820400000000046e-01 3.043447100000000113e-02 9.999991128097319715e-01
1.233759999999999991e+03 1.004429900000000098e+00 3.133306899999999812e-02 9.999989566901660298e-01
1.233789999999999964e+03 9.879633100000000390e-01 3.103571499999999844e-02 9.999987548787194758e-01
1.233819999999999936e+03 1.005378799999999906e+00 3.128721400000000069e-02 9.999984873270131303e-01
1.233849999999999909e+03 9.862932800000000499e-01 3.098719299999999968e-02 9.999981213912954026e-01
1.233880000000000109e+03 1.021695100000000078e+00 3.147636300000000026e-02 9.999976006624348157e-01
1.233910000000000082e+03 9.692690400000000261e-01 3.080890500000000101e-02 9.999968192141261980e-01
1.233940000000000055e+03 9.650217800000000512e-01 3.074677599999999997e-02 9.999954719902058864e-01
1.233970000000000027e+03 9.735430800000000051e-01 3.092835899999999902e-02 9.999853576379118536e-01
1.234000000000000000e+03 1.001571500000000059e+00 3.157335299999999845e-02 9.996583720839559151e-01
1.234029999999999973e+03 9.954555099999999879e-01 3.155132299999999917e-02 9.938134193996736032e-01
1.234059999999999945e+03 9.005483600000000477e-01 3.018133300000000116e-02 9.493240401034265252e-01
1.234089999999999918e+03 8.098896300000000270e-01 2.880915300000000054e-02 8.220561391431318032e-01
1.234119999999999891e+03 7.391258400000000339e-01 2.754367699999999905e-02 7.180039603461049191e-01
1.234150000000000091e+03 7.662218899999999611e-01 2.818959299999999890e-02 7.778274842887091811e-01
1.234180000000000064e+03 9.012242000000000308e-01 3.063301400000000008e-02 9.180609486588897639e-01
1.234210000000000036e+03 9.406347900000000539e-01 3.136595600000000039e-02 9.870203656306687501e-01
1.234240000000000009e+03 9.613440500000000055e-01 3.174219699999999977e-02 9.990939218593913873e-01
1.234269999999999982e+03 1.001579400000000009e+00 3.238424899999999690e-02 9.999647426587624510e-01
1.234299999999999955e+03 9.352035300000000051e-01 3.144463799999999698e-02 9.999946183414464285e-01
1.234329999999999927e+03 9.793926699999999652e-01 3.190152699999999897e-02 9.999964907909965062e-01
1.234359999999999900e+03 9.879830499999999738e-01 3.187965899999999769e-02 9.999973913996377251e-01
1.234390000000000100e+03 1.027707200000000043e+00 3.406197999999999865e-02 9.999979783557979562e-01
1.234420000000000073e+03 1.043819499999999900e+00 3.870985200000000293e-02 9.999983848568013700e-01
1.234450000000000045e+03 1.082202799999999909e+00 3.926121099999999725e-02 9.999986787642790587e-01
1.234480000000000018e+03 9.921792099999999781e-01 3.739014999999999700e-02 9.999988984932527414e-01
1.234509999999999991e+03 9.780862999999999641e-01 3.697764900000000132e-02 9.999990672431336991e-01
1.234539999999999964e+03 1.096291099999999963e+00 3.903997000000000023e-02 9.999991997456797455e-01
1.234569999999999936e+03 1.026396700000000051e+00 3.779643500000000322e-02 9.999993057417377873e-01
1.234599999999999909e+03 1.025889000000000051e+00 3.793384500000000076e-02 9.999993918910656809e-01
1.234630000000000109e+03 1.021489300000000044e+00 3.787367400000000300e-02 9.999994628770432215e-01
1.234660000000000082e+03 9.985865000000000435e-01 3.725173100000000320e-02 9.999995220736167534e-01
1.234690000000000055e+03 9.501787499999999609e-01 3.636485200000000306e-02 9.999995719627832180e-01
1.234720000000000027e+03 9.248881100000000410e-01 3.591747299999999837e-02 9.999996144041609636e-01
1.234750000000000000e+03 9.939940200000000337e-01 3.731376100000000084e-02 9.999996508138165874e-01
1.234779999999999973e+03 1.019064600000000098e+00 3.780867799999999834e-02 9.999996822857406542e-01
1.234809999999999945e+03 1.055492300000000050e+00 3.860370999999999941e-02 9.999997096761196191e-01
1.234839999999999918e+03 1.061624200000000018e+00 3.899459400000000048e-02 9.999997336629056210e-01
1.234869999999999891e+03 1.021830299999999969e+00 3.839158299999999996e-02 9.999997547886431137e-01
1.234900000000000091e+03 9.688212899999999461e-01 3.746149000000000007e-02 9.999997734917311920e-01
1.234930000000000064e+03 1.056816699999999942e+00 3.895505999999999969e-02 9.999997901295640812e-01
1.234960000000000036e+03 1.004735200000000050e+00 3.806709099999999735e-02 9.999998049958787050e-01
1.234990000000000009e+03 1.035398299999999994e+00 3.870754299999999704e-02 9.999998183339112723e-01
1.235019999999999982e+03 9.500723800000000496e-01 3.712409099999999795e-02 9.999998303464828764e-01
1.235049999999999955e+03 9.814682999999999602e-01 3.783392000000000005e-02 9.999998412038082485e-01
1.235079999999999927e+03 9.668275400000000408e-01 3.760555100000000095e-02 9.999998510495974324e-01
1.235109999999999900e+03 1.038047100000000000e+00 3.897689299999999857e-02 9.999998600058637166e-01
1.235140000000000100e+03 9.822013299999999836e-01 3.797862099999999713e-02 9.999998681767434672e-01
1.235170000000000073e+03 9.657984299999999855e-01 3.752570699999999843e-02 9.999998756515524612e-01
1.235200000000000045e+03 1.007699899999999982e+00 3.860922099999999912e-02 9.999998825072494713e-01
1.235230000000000018e+03 9.957138399999999612e-01 3.848148600000000225e-02 9.999998888104341122e-01
1.235259999999999991e+03 8.880273600000000433e-01 3.635229599999999922e-02 9.999998946189777582e-01
1.235289999999999964e+03 8.871740000000000181e-01 3.644486899999999779e-02 9.999998999833620283e-01
1.235319999999999936e+03 8.766170699999999982e-01 3.554823800000000283e-02 9.999999049477839019e-01
1.235349999999999909e+03 8.361501099999999465e-01 2.967879000000000003e-02 9.999999095510725411e-01
1.235380000000000109e+03 8.045265299999999620e-01 2.910122399999999845e-02 9.999999138274532351e-01
1.235410000000000082e+03 7.950367999999999880e-01 2.901388599999999915e-02 9.999999178071881101e-01
1.235440000000000055e+03 7.308648300000000209e-01 2.783977300000000168e-02 9.999999215171144762e-01
1.235470000000000027e+03 7.778397400000000017e-01 2.867470899999999961e-02 9.999999249810997970e-01
1.235500000000000000e+03 7.958874799999999805e-01 2.912647499999999889e-02 9.999999282204279361e-01
1.235529999999999973e+03 7.587739100000000514e-01 2.845094199999999990e-02 9.999999312541280050e-01
1.235559999999999945e+03 7.308025299999999502e-01 2.796866099999999883e-02 9.999999340992546948e-01
1.235589999999999918e+03 7.501150599999999447e-01 2.839797900000000028e-02 9.999999367711297493e-01
1.235619999999999891e+03 7.170672500000000449e-01 2.771923000000000095e-02 9.999999392835487999e-01
1.235650000000000091e+03 8.612119400000000091e-01 3.034805399999999931e-02 9.999999416489606663e-01
1.235680000000000064e+03 9.418102999999999891e-01 3.177089799999999881e-02 9.999999438786215666e-01
1.235710000000000036e+03 9.480085700000000504e-01 3.188087900000000086e-02 9.999999459827305648e-01
